Angle,X,Y,
0,0,0,
0.00003728926290485611,0.0003999971712101859,1.3016490129234377e-10,
0.00014913911363549585,0.0015999886806145542,2.0824714416607594e-9,
0.0003354957382363576,0.003599974515537925,1.054110277693458e-8,
0.000596269446768901,0.006399954654866294,3.330885632136187e-8,
0.0009313346732927699,0.00999992906906378,8.130088197938067e-8,
0.0013405299758391233,0.014399897720196337,1.6853591567018105e-7,
0.001823658036377829,0.01959986056196227,3.121250081448469e-7,
0.0023804856607762574,0.025599817539729484,5.322577490963592e-7,
0.0030107437787496435,0.03239976859057958,8.521859865622358e-7,
0.0037141274438113013,0.03999971364335864,0.0000012982050416199134,
0.004490295833203993,0.048399652618734905,0.000001899632418374779,
0.005338872247837894,0.05759958542926304,0.0000026887840092411667,
0.006259444112215358,0.06759951197945545,0.0000037009477955155553,
0.007251562974350718,0.07839943216586014,0.0000049743550432430526,
0.008314744505682873,0.08999934587714539,0.0000065501489943764035,
0.009448468500990586,0.10239925299419138,0.000008472351053227486,
0.010652178878289158,0.11559915339018835,0.000010787824468211533,
0.011925283678739117,0.12959904693074167,0.000013546235508884986,
0.013267155066537485,0.14439893347398375,0.0000168000121382743,
0.014677129328812034,0.1599988128706926,0.000020604300180499186,
0.016154506875510163,0.17639868496441716,0.000025016916983687867,
0.01769855223928537,0.19359854959160958,0.00003009830257818451,
0.019308494075386675,0.21159840658176401,0.00003591146833005032,
0.02098352516153612,0.23039825575756245,0.000042521943089857085,
0.022722802397808575,0.2499980969350272,0.00004999771683677286,
0.02452544680652604,0.2703979299236802,0.00005840918181794117,
0.02639054353211225,0.2915977545267089,0.00006782907118315252,
0.028317141841004968,0.3135975705411394,0.00007833239511480824,
0.030304255121520234,0.3363973777580156,0.00008999637445317806,
0.03235086088373579,0.3599971759625859,0.00010290037181694958,
0.03445590075938057,0.3843969649344966,0.00011712582021907066,
0.036618280501709746,0.4095967444479911,0.0001327561491778844,
0.038836869985423,0.4355965142721175,0.00014987670832355732,
0.04111050320653001,0.4623962741709414,0.00016857468849980004,
0.043437978282261466,0.4899960239037664,0.0001889390403608793,
0.04581805745097062,0.5183957632253615,0.00021106039046392628,
0.04824946707202031,0.5475954918861943,0.00023503095485653347,
0.05073089762572769,0.5775952096326719,0.0002609444501596454,
0.05326100371327775,0.6083949162073885,0.00028889600214574676,
0.05583840405661515,0.6399946113493793,0.0003189820518123337,
0.05846168149839619,0.6723942947943816,0.0003513002589506883,
0.0611293830019359,0.7055939662751022,0.0003859494032099377,
0.06384001965114085,0.7395936255214921,0.00042302928265641054,
0.06659206665045617,0.7743932722610279,0.0004626406098282845,
0.06938396332485117,0.8099929062190002,0.000504884905285527,
0.07221411311974732,0.8463925271188069,0.0005498643886551267,
0.07508088360102298,0.8835921346822566,0.0005976818671716221,
0.07798260645501343,0.9215917286298762,0.000648440621712918,
0.08091757748847236,0.9603913086812258,0.0007022442903313988,
0.08388405662859606,0.9999908745552213,0.0007591967492803291,
0.08688026792303764,1.0403904259704624,0.0008194019915355537,
0.08990439953988794,1.0815899626455692,0.0008829640028124885,
0.09295460376781002,1.1235894842995227,0.0009499866350783956,
0.09602899701592872,1.1663889906520153,0.0010205734775599654,
0.09912565981403718,1.2099884814238058,0.0010948277252461822,
0.10224263681252971,1.2543879563370837,0.0011728520448864815,
0.10537793678252658,1.2995874151158358,0.0012547484384842081,
0.10852953261601835,1.3455868574862244,0.001340618104285359,
0.11169536132574077,1.39238628317697,0.0014305612952626194,
0.11487332404551139,1.4399856919197398,0.0015246771750947,
0.11806128603017164,1.4883850834495458,0.0016230636716409548,
0.12125707665578893,1.5375844575051476,0.0017258173279113037,
0.12445848941964682,1.5875838138294611,0.0018330331505314354,
0.12766328194048546,1.6383831521699777,0.0019448044557033146,
0.1308691759586073,1.6899824722791852,0.002061222712660975,
0.1340738573359635,1.7423817739150005,0.002182377384621604,
0.1372749760562982,1.7955810568412058,0.002308355767231929,
0.14047014622533122,1.8495803208278927,0.0024392428245098847,
0.14365694607082508,1.9043795656519125,0.0025751210222815842,
0.14683291794285447,1.9599787910973339,0.00271607015911357,
0.14999556831378671,2.016377996955907,0.002862167194740372,
0.15314236777857032,2.0735771830275365,0.0030134860759873463,
0.15627075105482147,2.131576349120754,0.003170097560188815,
0.15937811698294888,2.1903754950532113,0.0033320690361014955,
0.16246182852638455,2.2499746206521625,0.0034994643423132197,
0.16549918943027095,2.309973731710022,0.0036711881249328285,
0.16846927939388995,2.369972834256445,0.0038460573563048953,
0.17137209840559198,2.429971928482052,0.004024001591537072,
0.17420764645578443,2.4899710145774625,0.004204950385737009,
0.1769759235367586,2.5499700927332976,0.004388833294012356,
0.17967692964257437,2.6099691631401796,0.0045755798714707755,
0.18231066476892563,2.669968225988727,0.004765119673219908,
0.18487712891308264,2.729967281469561,0.004957382254367407,
0.18737632207379581,2.789966329773302,0.005152297170020928,
0.18980824425104598,2.849965371090571,0.005349793975288118,
0.1921728954460442,2.9099644056119884,0.005549802225276633,
0.1944702756613088,2.9699634335281746,0.005752251475094122,
0.19670038490016545,3.029962455029751,0.005957071279848241,
0.1988632231669587,3.0899614703073373,0.0061641911946466385,
0.2009587904668982,3.1499604795515537,0.006373540774596964,
0.2029870868059625,3.2099594829530216,0.006585049574806873,
0.20494811219070688,3.2699584807023614,0.006798647150384016,
0.2068418666283979,3.3299574729901935,0.007014263056436046,
0.2086683501266289,3.389956460007139,0.00723182684807061,
0.21042756269360846,3.449955441943818,0.00745126808039537,
0.2121195043377372,3.509954418990851,0.007672516308517965,
0.21374417506785812,3.569953391338858,0.007895501087546053,
0.21530157489277565,3.629952359178461,0.008120151972587284,
0.2167917038216787,3.6899513227002796,0.008346398518749314,
0.2182145618636985,3.7499502820949346,0.008574170281139788,
0.21957014902792793,3.809949237553047,0.008803396814866365,
0.22085846532355585,3.8699481892652368,0.00903400767503669,
0.222079510759579,3.929947137422125,0.00926593241675842,
0.2232332853448978,3.9899460822143316,0.009499100595139207,
0.22431978908806702,4.0499450238324775,0.009733441765286698,
0.22533902199758335,4.109943962467182,0.009968885482308537,
0.22629098408148235,4.169942898309069,0.0102053613013124,
0.22717567534760733,4.229941831548757,0.010442798777405924,
0.2279930958032247,4.289940762376864,0.010681127465696749,
0.22874324545529362,4.349939690984017,0.010920276921292552,
0.22942612431038847,4.40993861756083,0.011160176699300969,
0.23004173237450712,4.469937542297928,0.01140075635482965,
0.23059006965307055,4.529936465385928,0.011641945442986254,
0.23107113615119237,4.589935387015453,0.011883673518878427,
0.2314849318731786,4.649934307377125,0.012125870137613825,
0.23183145682287404,4.709933226661561,0.012368464854300099,
0.23211071100362352,4.769932145059382,0.0126113872240449,
0.2323226944178878,4.829931062761211,0.012854566801955878,
0.23246740706785832,4.889929979957667,0.01309793314314069,
0.23254484895476535,4.949928896839373,0.013341415802706985,
0.23255502007933945,5.009927813596945,0.013584944335762404,
0.2324979204417729,5.069926730421006,0.013828448297414617,
0.23237355004145036,5.129925647502178,0.014071857242771265,
0.23218190887718013,5.18992456503108,0.014315100726940005,
0.23192299694719362,5.249923483198331,0.014558108305028478,
0.23159681424906856,5.309922402194555,0.01480080953214435,
0.2312033607796908,5.369921322210371,0.015043133963395267,
0.2307426365354847,5.4299202434364,0.01528501115388888,
0.2302146415121057,5.4899191660632605,0.01552637065873284,
0.22961937570486315,5.549918090281576,0.015767142033034795,
0.22895683910829773,5.609917016281965,0.01600725483190241,
0.22822703171656517,5.66991594425505,0.01624663861044332,
0.22742995352336032,5.729914874391448,0.01648522292376519,
0.2265656045218394,5.789913806881784,0.016722937326975662,
0.22563398470473592,5.849912741916676,0.0169597113751824,
0.22463509406443735,5.909911679686745,0.01719547462349303,
0.22356893259298496,5.9699106203826116,0.017430156627015234,
0.22243550028192044,6.029909564194897,0.017663686940856654,
0.22123479712282376,6.0899085113142215,0.017895995120124943,
0.21996682310681362,6.149907461931204,0.018127010719927734,
0.21863157822493173,6.209906416236467,0.018356663295372697,
0.21722906246810453,6.269905374420631,0.018584882401567485,
0.21575927582706617,6.329904336674317,0.01881159759361975,
0.21422221829278157,6.389903303188143,0.01903673842663713,
0.21261788985610025,6.449902274152732,0.019260234455727287,
0.21094629050802546,6.5099012497587045,0.019482015235997872,
0.2092074202397528,6.56990023019668,0.019702010322556536,
0.20740127904270853,6.629899215657279,0.019920149270510928,
0.20552786690866487,6.689898206331121,0.020136361634968705,
0.20358718382985547,6.749897202408831,0.020350576971037513,
0.20157922979882154,6.809896204081026,0.020562724833825013,
0.1995040048087963,6.869895211538326,0.020772734778438842,
0.19736150885374357,6.9298942249713535,0.02098053635998666,
0.19515174192801155,6.989893244570729,0.02118605913357613,
0.19287470402721724,7.0498922705270735,0.021389232654314888,
0.19053039514747752,7.109891303031005,0.021589986477310582,
0.1881188152861394,7.169890342273146,0.021788250157670882,
0.18563996444162667,7.229889388444116,0.021983953250503424,
0.18309384261347783,7.289888441734538,0.02217702531091587,
0.18048044980265418,7.34988750233503,0.022367395894015863,
0.1777997860113856,7.409886570436213,0.022554994554911063,
0.17505185124347838,7.469885646228709,0.022739750848709113,
0.17223664550439208,7.529884729903138,0.02292159433051767,
0.16935416880120102,7.589883821650119,0.023100454555444388,
0.1664044211430941,7.649882921660273,0.023276261078596917,
0.16338740254091347,7.7098820301242235,0.023448943455082902,
0.16030311300780817,7.7698811472325895,0.023618431240010004,
0.15715155255915708,7.829880273175989,0.02378465398848587,
0.15393272121241539,7.8898794081450445,0.023947541255618154,
0.15064661898788329,7.949878552330377,0.024107022596514503,
0.14729324590824472,8.009877705922609,0.024263027566282576,
0.1438726019989903,8.069876869112356,0.024415485720030022,
0.14038468728849415,8.129876042090242,0.02456432661286449,
0.1368295018082063,8.189875225046887,0.024709479799893633,
0.13320704559280624,8.249874418172912,0.0248508748362251,
0.1295173186798955,8.309873621658934,0.024988441276966544,
0.12576032111092034,8.36987283569558,0.025122108677225623,
0.12193605293109495,8.429872060473468,0.025251806592109995,
0.11804451418901671,8.489871296183216,0.025377464576727283,
0.11408570493728169,8.549870543015448,0.02549901218618517,
0.11005962523286889,8.609869801160778,0.025616378975591284,
0.10596627513660205,8.669869070809836,0.025729494500053296,
0.10180565471407241,8.729868352153238,0.025838288314678843,
0.09757776403548486,8.789867645381602,0.025942689974575578,
0.09328260317550424,8.849866950685556,0.026042629034851168,
0.08892017221394724,8.909866268255712,0.026138035050613247,
0.08449047123555195,8.969865598282697,0.026228837576969477,
0.07999350033082343,9.029864940957127,0.026314966169027516,
0.0754292595951881,9.089864296469624,0.02639635038189499,
0.07079774913007014,9.14986366501081,0.026472919770679577,
0.06609896904266083,9.209863046771307,0.02654460389048892,
0.06133291944622613,9.26986244194173,0.02661133229643065,
0.0564996004602605,9.329861850712703,0.026673034543612452,
0.051599012210794416,9.38986127327485,0.02672964018714197,
0.04663115483008688,9.449860709818784,0.02678107878212684,
0.04159602845785563,9.509860160535132,0.026827279883674733,
0.036493633240431395,9.569859625614509,0.026868173046893283,
0.031323969331526785,9.629859105247542,0.026903687826890156,
0.02608703689254388,9.689858599624847,0.026933753778772995,
0.02078283609203598,9.749858108937046,0.026958300457649447,
0.015411367106861005,9.80985763337476,0.02697725741862718,
0.009972630122027738,9.86985717312861,0.026990554216813838,
0.00446662533077269,9.929856728389213,0.026998120407317066,