Angle,X,Y,
0,12,1.8,
0.005950897019073998,11.999618259444906,1.799999980173551,
0.023781776940960963,11.998472955263598,1.7999996829477423,
0.05342724305385306,11.996563840352922,1.7999983963651485,
0.09477842310256417,11.993890504357411,1.7999949381032578,
0.14768315248994124,11.990452375893977,1.7999876618842658,
0.2119462303328012,11.986248725666455,1.7999744664487893,
0.2873297478735439,11.981278670470047,1.7999528070934967,
0.37355348849519754,11.975541178085622,1.799919709772657,
0.4702953982628517,11.969035073063893,1.7998717877636068,
0.5771921255027264,11.961759043399477,1.7998052608961344,
0.6938396274192206,11.953711648094812,1.799715977345783,
0.8197938411340463,11.944891325613971,1.7995994379910716,
0.9545714158175361,11.935296403226323,1.7994508233346331,
1.097650501748109,11.924925107240085,1.7992650229882714,
1.2484715912136106,11.913775574125752,1.7990366677219354,
1.4064384051396468,11.901845862529377,1.7987601640766124,
1.570918818220866,11.889133966175756,1.7984297315411375,
1.741245814147833,11.875637827661455,1.7980394422929233,
1.9167184612849186,11.861355353137743,1.7975832635026054,
2.096602897871979,11.84628442788337,1.7970551022026078,
2.2801333145249827,11.830422932767238,1.7964488527196236,
2.4665129205095613,11.813768761600931,1.7957584466710177,
2.6549148789764168,11.79631983938114,1.794977905525143,
2.844483195106062,11.778074141421932,1.7941013957255776,
3.0343335399147455,11.759029713376922,1.7931232863792794,
3.223553991358209,11.739184692151298,1.792038209508658,
3.4112056733277325,11.71853732770373,1.7908411228675643,
3.5963232721931724,11.697086005738155,1.7895273753211993,
3.777915409702721,11.674829271285422,1.7880927747899404,
3.95496485030951,11.651765853174822,1.7865336587570853,
4.126428520358588,11.627894689395498,1.784846967340513,
4.291237316037884,11.60321495334771,1.783030318928266,
4.4482956765547605,11.577726080983984,1.7810820883780463,
4.5964808986617856,11.551427798840145,1.7790014877806322,
4.734642168393384,11.524320152956202,1.7767886497872123,
4.8615992857040515,11.49640353868712,1.7744447135006371,
4.976141057609499,11.467678731403474,1.7719719129305895,
5.077023335433654,11.438146918081953,1.769373668012671,
5.162966671882955,11.407809729785757,1.7666546781914099,
5.2326535739216515,11.376669275034866,1.7638210185671828,
5.284725327872758,11.34472817406617,1.760880238607058,
5.317778373891951,11.311989593983487,1.7578414634195534,
5.330360208052108,11.278457284797454,1.7547154975933166,
5.320964791907528,11.244135616355276,1.7515149315997185,
5.28802745174961,11.209029616160365,1.7482542507593672,
5.229919253122873,11.17314500808185,1.744949946772541,
5.1449408408551305,11.136488251953955,1.7416206318135354,
5.031315741353967,11.099066584065252,1.7382871551889334,
4.887183132790362,11.060888058537797,1.7349727225597886,
4.710590100783622,11.021961589596126,1.7317030177277306,
4.499483413235202,10.982296994726127,1.7285063269849845,
4.251700869220603,10.941905038723801,1.7254136660283117,
3.9649623047481413,10.90079747863388,1.7224589094368663,
3.6368603745366745,10.858987109578322,1.719678922713972,
3.2648512758724544,10.816487811474683,1.7171136968928122,
2.846245640659965,10.773314596644369,1.714806485706045,
2.378199897992696,10.72948365831074,1.7128039453193298,
1.8577085053692246,10.685012419987114,1.7111562766287753,
1.2815975659004344,10.639919585754635,1.7099173701223047,
0.6465204954665624,10.594225191429999,1.7091449533049388,
-0.05104341834585097,10.54795065662308,1.7089007406879964,
-0.8147865114216224,10.501118837684409,1.709250586342215,
-1.6485649901397514,10.453754081542547,1.710264639014785,
-2.556384345401717,10.4058822804313,1.7120174998103086,
-3.542376038418009,10.357530927506849,1.7145883824356685,
-4.610763239076716,10.308729173354712,1.7180612760088214,
-5.765813086051678,10.259507883386618,1.722525110431507,
-7.01072363241091,10.209940100992085,1.7280689551026613,
-8.322088217012874,10.16104701353985,1.734644663801205,
-9.686629432505294,10.113261374115186,1.7422114549560452,
-11.101211362191604,10.066582829574367,1.7507683110840264,
-12.562350441272825,10.021009768074089,1.760310588117282,
-14.066214985349061,9.976539376940115,1.770830182135289,
-15.608635079360987,9.933167699646056,1.782315693533007,
-17.18512337196009,9.890889691902272,1.7947525886250975,
-18.79090686592603,9.84969927685491,1.8081233586862269,
-20.420969270365784,9.809589399395053,1.8224076764274493,
-22.070102922074092,9.77055207957801,1.8375825499086735,
-23.73296873756805,9.732578465152724,1.8536224738872118,
-25.404162173845418,9.695658883201308,1.870499578602408,
-27.07828280251135,9.659782890888703,1.8881837759963518,
-28.750004877295503,9.624939325322476,1.9066429033706722,
-30.414146223286252,9.591116352522727,1.9258428644794137,
-32.06573290326648,9.55830151550213,1.9457477680579947,
-33.70005740899104,9.526481781456107,1.966320063788248,
-35.312728552591274,9.495643588063116,1.9875206756995434,
-36.8997117525475,9.465772888895073,2.009309133005991,
-38.45735897053049,9.436855197937895,2.0316436983797295,
-39.982428110917375,9.40887563322218,2.054481493660292,
-41.47209220111879,9.381818959563999,2.0777786230000608,
-42.92393909554031,9.355669630415822,2.101490293445795,
-44.335962769085896,9.330411828827572,2.125570932956249,
-45.70654748015992,9.306029507517799,2.149974305855866,
-47.034446191752096,9.282506428054988,2.1746536257245586,
-48.318754654372775,9.259826199148984,2.1995616657235706,
-49.55888249364073,9.237972314052552,2.2246508663574165,
-50.75452252789941,9.216928187073062,2.249873440671908,
-51.90561938692042,9.19667718919429,2.2751814768882626,
-53.01233832923363,9.17720268280836,2.3005270384732883,
-54.07503497759886,9.158488055557802,2.325862261645658,
-55.094226520848245,9.140516753287741,2.35113945031826,
-56.070564773595784,9.123272312108213,2.3763111684766356,
-57.00481134788171,9.106738389566601,2.4013303299934927,
-57.89781507487472,9.090898794930201,2.4261502858793085,
-58.7504917205521,9.075737518578922,2.450724908969006,
-59.56380596567836,9.061238760508097,2.4750086760447223,
-60.3387555654039,9.047386957941432,2.4989567473946503,
-61.07635756494241,9.034166812054078,2.522525043807965,
-61.77763642242934,9.021563313805826,2.5456703210058347,
-62.44361387565517,9.009561768884435,2.5683502415085124,
-63.0753003835428,8.99814782175908,2.5905234439385083,
-63.67368797390734,8.987307478843924,2.612149609759845,
-64.23974433442534,8.977027130771834,2.633189527453393,
-64.77440799238222,8.967293573778194,2.6536051541282957,
-65.27858443947298,8.958094030194873,2.6733596745694617,
-65.75314306979591,8.949416168054302,2.692417557721159,
-66.1989148114901,8.941248119803678,2.7107446106066675,
-66.61669034472605,8.933578500129304,2.7283080296840425,
-67.00721881059214,8.92639642289105,2.7450764496379283,
-67.37120692660271,8.919691517166935,2.7610199896074805,
-67.70931843492156,8.91345394240784,2.7761102968503533,
-68.02217381888853,8.907674402702353,2.7903205878427797,
-68.31035023202122,8.90234416015173,2.8036256868157254,
-68.57438159135344,8.897455047354988,2.8160020617271337,
-68.81475879380892,8.892999479004123,2.827427857670238,
-69.03193002034382,8.888970462589453,2.837882927717975,
-69.2263010978895,8.885361608215092,2.8473488612034643,
-69.39823589375699,8.882167137524544,2.8558090094365816,
-69.54805672120158,8.879381891736424,2.8632485088566018,
-69.67604473835141,8.877001338790315,2.869654301620936,
-69.7824403257507,8.875021579602734,2.8750151536299438,
-69.86744343042183,8.873439353433245,2.879321669987827,
-69.93121386666218,8.872252042360675,2.882566307899612,
-69.97387156582842,8.871457674869479,2.8847433870042103,
-69.99549676916511,8.871054928546213,2.8858490971435495,