Angle,X,Y,
180,11.6,2.1,
180.0084171675877,11.599524812750023,2.09999996509088,
180.03362879138407,11.598099109086789,2.09999944183954,
180.07551532442224,11.595722464250647,2.099997177564972,
180.13387782149977,11.592394173576372,2.099991094101942,
180.20843838863314,11.588113257394467,2.099978302255657,
180.29884081182269,11.582878467892968,2.0999551220383,
180.40465136427625,11.57668829793979,2.0999171086874333,
180.5253597904997,11.569540991865555,2.0998590844662672,
180.6603804645487,11.561434558206983,2.099775176245797,
180.80905371821433,11.552366784410765,2.099658858868805,
180.97064733298063,11.54233525349797,2.0995030042957348,
181.14435818716342,11.53133736268897,2.0992999365324256,
181.32931404679758,11.519370343988877,2.0990414923397207,
181.5245754855529,11.506431286733505,2.0987190877249366,
181.72913791527455,11.49251716209585,2.098323790215206,
181.94193370476086,11.477624849553075,2.097846396912682,
182.16183436012497,11.461751165314038,2.0972775183316132,
182.3876527356567,11.44489289270731,2.0966076680172843,
182.6181452396074,11.427046814529735,2.0958273579468245,
182.85201399481878,11.408209747355492,2.094927199711883,
183.0879089097524,11.388378577805685,2.093898011483171,
183.32442961130113,11.367550300778447,2.092730930756872,
183.56012718686875,11.345722059639556,2.091417532882919,
183.79350567967563,11.322891188373585,2.0899499553751375,
184.02302327809298,11.299055255695562,2.088321028003257,
184.24709313710758,11.274212111123132,2.08652440866679,
184.46408376772612,11.248359933009274,2.084554725050778,
184.67231892830338,11.221497278535495,2.0824077220634014,
184.87007695032207,11.193623135665572,2.080080415055463,
185.05558943010038,11.164736977059802,2.0775712488217333,
185.22703921716175,11.134838815949765,2.074880262384164,
185.38255762957394,11.103929263973617,2.072009259556971,
185.5202208264251,11.072009590971886,2.068961985293581,
185.63804526775337,11.039081786743804,2.0657443078154496,
185.7339821928108,11.005148624764134,2.062364406522742,
185.80591104860568,10.97021372786055,2.058832965686885,
185.8516318025553,10.93428163585149,2.0551633739249806,
185.86885607617467,10.897357875144571,2.051371929456096,
185.85519704165807,10.85944903029549,2.04747805113941,
185.80815803083556,10.820562817527463,2.0435044952942336,
185.72511981758564,10.780708160211173,2.0394775783018972,
185.6033265519667,10.73989526630523,2.035427404989501,
185.4398703494209,10.69813570775717,2.0313881027955376,
185.23167457437754,10.655442501864956,2.0273980617173772,
184.97547590840836,10.611830194598989,2.0235001800406245,
184.66780536391803,10.567314945884664,2.0197421158503372,
184.30496850183283,10.521914616845422,2.016176544324119,
183.88302524425455,10.475648859006325,2.012861420807071,
183.39776985113411,10.428539205458156,2.009860249668619,
182.8447118664651,10.38060916398203,2.007242358941201,
182.2190591495698,10.331884312134521,2.005083180740826,
181.51570450811056,10.282392394293325,2.0034645374694984,
180.72921795999267,10.232163420663412,2.0024749337995096,
179.85384728902946,10.181229768243721,2.002209854439598,
178.88353033701048,10.129626283754364,2.0027720676829732,
177.81192339430243,10.077390388524348,2.0042719347372118,
176.63245109228012,10.024562185339814,2.0068277248360156,
175.33838430641904,9.971184567252793,2.0105659361328403,
173.92315611867457,9.917310741028798,2.0156208331883647,
172.41135075013216,9.86404728188154,2.021994530757022,
170.8265077810875,9.812162258701807,2.0296307167093115,
169.17346475776247,9.761655512345136,2.038528921703918,
167.4577013130188,9.712524795141967,2.0486825170204503,
165.6853401386516,9.66476588131444,2.060079040195388,
163.8631219862271,9.61837267543266,2.07270051487616,
161.99835330535092,9.573337318910447,2.0865237648933608,
160.0988267291493,9.529650294540575,2.101520722551091,
158.1727164502691,9.487300529069472,2.1176587311354385,
156.22845240971765,9.446275493811433,2.1349008416410884,
154.27457892313134,9.406561303302277,2.1532061037160672,
152.3196046728124,9.368142811992527,2.172529850824619,
150.37185171809963,9.331003708980038,2.1928239796282156,
148.43931121653736,9.295126610782123,2.214037223584698,
146.52951289697336,9.260493152147161,2.236115420765553,
144.64941407532723,9.22708407490568,2.2590017758913183,
142.80531232677512,9.194879314860923,2.2826371165851285,
141.0027840428179,9.163858086718907,2.306960143844381,
139.2466492322892,9.133998967057948,2.3319076767305513,
137.54096126503268,9.105279975337675,2.357414891277125,
135.88901894286175,9.077678652947531,2.3834155536156745,
134.29339738483085,9.051172140294744,2.4098422473200625,
132.7559937394874,9.02573725193179,2.436626594968778,
131.27808364211313,9.001350549723337,2.4636994739254123,
129.8603845442197,8.97798841405266,2.4909912263372544,
128.50312246624313,8.955627113067553,2.518431863352036,
127.20609927424135,8.934242869965711,2.5459512635527943,
125.96875818097863,8.913811928319605,2.5734793656108774,
124.79024576168726,8.894310615440824,2.600946355157076,
123.66946931410556,8.875715403783913,2.6282828458708964,
122.60514885710973,8.858002970389684,2.655420054787955,
121.59586344217053,8.841150254368015,2.682289971825515,
120.64009174695639,8.825134512420123,2.708825523526153,
119.73624713730027,8.809933372400328,2.7349607310195556,
118.8827075328424,8.795524884917292,2.7606308622024525,
118.07784050481212,8.781887572974739,2.785772578136683,
117.3200240834878,8.76900047965167,2.8103240736653903,
116.60766376869847,8.756843213822036,2.8342252122473544,
115.93920622869054,8.745395993913917,2.857417655009453,
115.31315014848265,8.73463968970817,2.87984498401726,
114.72805465455306,8.724555862176556,2.9014528197637715,
114.18254570300714,8.715126801359363,2.922188932876272,
113.67532077661804,8.706335562282492,2.9420033500413245,
113.20515219472551,8.698165998914043,2.9608484541478974,
112.77088930046122,8.690602796160372,2.9786790786486286,
112.37145975313253,8.683631499901628,2.99545259613922,
112.0058701203333,8.677238545066782,3.011129001155953,
111.67320593466503,8.671411281748126,3.02567098719136,
111.372631353812,8.666137999355271,3.039044017928009,
111.10338853995175,8.6614079488086,3.051216392690426,
110.86479685483857,8.65721136277223,3.0621593061151597,
110.65625195007055,8.65353947392644,3.0718469020389643,
110.47722481772698,8.650384531279585,3.0802563216051277,
110.32726085440368,8.647739814519497,3.0873677455879234,
110.20597898139827,8.64559964640435,3.0931644309351993,
110.11307085509176,8.643959403193033,3.097632741529102,
110.04830019417852,8.64281552311499,3.10076217316493,
110.01150224407291,8.642165512879533,3.102545372748116,